       tinit  ,       tfinal  ,  Volts_Anode ,    Volts_Sep , Volts_Cathode,  Volts_Total ,    Volts_OCV ,   OCV_Anode  ,  OCV_Cathode ,      Current , Resist_anode ,  Resist_sep  , Resist_cathod,  Resist_Total
  0.00000E+00 ,   1.00000E-08 ,  1.21329E-01 ,  9.30365E-09 ,  3.63253E+00 ,  3.51120E+00 ,  4.06267E+00 ,  1.13444E-01 ,  4.17612E+00 ,  2.00000E+01 ,  3.94224E-04 ,  4.65182E-10 ,  2.71793E-02 ,  2.75735E-02
  1.00000E-08 ,   2.00000E-08 ,  1.21329E-01 ,  9.30365E-09 ,  3.63253E+00 ,  3.51120E+00 ,  4.06267E+00 ,  1.13444E-01 ,  4.17612E+00 ,  2.00000E+01 ,  3.94224E-04 ,  4.65182E-10 ,  2.71793E-02 ,  2.75735E-02
  2.00000E-08 ,   3.00000E-08 ,  1.21329E-01 ,  9.30365E-09 ,  3.63253E+00 ,  3.51120E+00 ,  4.06267E+00 ,  1.13444E-01 ,  4.17612E+00 ,  2.00000E+01 ,  3.94224E-04 ,  4.65182E-10 ,  2.71793E-02 ,  2.75735E-02
  3.00000E-08 ,   4.00000E-08 ,  1.21329E-01 ,  9.30365E-09 ,  3.63253E+00 ,  3.51120E+00 ,  4.06267E+00 ,  1.13444E-01 ,  4.17612E+00 ,  2.00000E+01 ,  3.94224E-04 ,  4.65182E-10 ,  2.71793E-02 ,  2.75735E-02
  4.00000E-08 ,   5.50000E-08 ,  1.21329E-01 ,  9.30365E-09 ,  3.63253E+00 ,  3.51120E+00 ,  4.06267E+00 ,  1.13444E-01 ,  4.17612E+00 ,  2.00000E+01 ,  3.94224E-04 ,  4.65182E-10 ,  2.71793E-02 ,  2.75735E-02
  5.50000E-08 ,   7.75000E-08 ,  1.21329E-01 ,  9.30365E-09 ,  3.63253E+00 ,  3.51120E+00 ,  4.06267E+00 ,  1.13444E-01 ,  4.17612E+00 ,  2.00000E+01 ,  3.94224E-04 ,  4.65182E-10 ,  2.71793E-02 ,  2.75735E-02
  7.75000E-08 ,   1.11250E-07 ,  1.21329E-01 ,  9.30365E-09 ,  3.63253E+00 ,  3.51120E+00 ,  4.06267E+00 ,  1.13444E-01 ,  4.17612E+00 ,  2.00000E+01 ,  3.94224E-04 ,  4.65182E-10 ,  2.71793E-02 ,  2.75735E-02
  1.11250E-07 ,   1.61875E-07 ,  1.21329E-01 ,  9.30365E-09 ,  3.63253E+00 ,  3.51120E+00 ,  4.06267E+00 ,  1.13444E-01 ,  4.17612E+00 ,  2.00000E+01 ,  3.94224E-04 ,  4.65182E-10 ,  2.71793E-02 ,  2.75735E-02
  1.61875E-07 ,   2.37813E-07 ,  1.21329E-01 ,  9.30365E-09 ,  3.63253E+00 ,  3.51120E+00 ,  4.06267E+00 ,  1.13444E-01 ,  4.17612E+00 ,  2.00000E+01 ,  3.94224E-04 ,  4.65182E-10 ,  2.71793E-02 ,  2.75735E-02
  2.37813E-07 ,   3.51719E-07 ,  1.21329E-01 ,  9.30365E-09 ,  3.63253E+00 ,  3.51120E+00 ,  4.06267E+00 ,  1.13444E-01 ,  4.17612E+00 ,  2.00000E+01 ,  3.94224E-04 ,  4.65182E-10 ,  2.71793E-02 ,  2.75735E-02
  3.51719E-07 ,   5.22578E-07 ,  1.21329E-01 ,  9.30365E-09 ,  3.63253E+00 ,  3.51120E+00 ,  4.06267E+00 ,  1.13444E-01 ,  4.17612E+00 ,  2.00000E+01 ,  3.94224E-04 ,  4.65182E-10 ,  2.71793E-02 ,  2.75735E-02
  5.22578E-07 ,   7.78867E-07 ,  1.21329E-01 ,  9.30365E-09 ,  3.63253E+00 ,  3.51120E+00 ,  4.06267E+00 ,  1.13444E-01 ,  4.17612E+00 ,  2.00000E+01 ,  3.94224E-04 ,  4.65182E-10 ,  2.71793E-02 ,  2.75735E-02
  7.78867E-07 ,   1.16330E-06 ,  1.21329E-01 ,  9.30365E-09 ,  3.63253E+00 ,  3.51120E+00 ,  4.06267E+00 ,  1.13444E-01 ,  4.17612E+00 ,  2.00000E+01 ,  3.94224E-04 ,  4.65182E-10 ,  2.71793E-02 ,  2.75735E-02
  1.16330E-06 ,   1.73995E-06 ,  1.21329E-01 ,  9.30365E-09 ,  3.63253E+00 ,  3.51120E+00 ,  4.06267E+00 ,  1.13444E-01 ,  4.17612E+00 ,  2.00000E+01 ,  3.94224E-04 ,  4.65182E-10 ,  2.71793E-02 ,  2.75735E-02
  1.73995E-06 ,   2.60493E-06 ,  1.21329E-01 ,  9.30365E-09 ,  3.63253E+00 ,  3.51120E+00 ,  4.06267E+00 ,  1.13444E-01 ,  4.17612E+00 ,  2.00000E+01 ,  3.94224E-04 ,  4.65182E-10 ,  2.71793E-02 ,  2.75735E-02
  2.60493E-06 ,   3.90239E-06 ,  1.21329E-01 ,  9.30365E-09 ,  3.63253E+00 ,  3.51120E+00 ,  4.06267E+00 ,  1.13444E-01 ,  4.17612E+00 ,  2.00000E+01 ,  3.94224E-04 ,  4.65182E-10 ,  2.71793E-02 ,  2.75735E-02
  3.90239E-06 ,   5.84859E-06 ,  1.21329E-01 ,  9.30365E-09 ,  3.63253E+00 ,  3.51120E+00 ,  4.06267E+00 ,  1.13444E-01 ,  4.17612E+00 ,  2.00000E+01 ,  3.94224E-04 ,  4.65182E-10 ,  2.71793E-02 ,  2.75735E-02
  5.84859E-06 ,   8.76788E-06 ,  1.21329E-01 ,  9.30365E-09 ,  3.63253E+00 ,  3.51120E+00 ,  4.06267E+00 ,  1.13444E-01 ,  4.17612E+00 ,  2.00000E+01 ,  3.94224E-04 ,  4.65182E-10 ,  2.71793E-02 ,  2.75735E-02
  8.76788E-06 ,   1.31468E-05 ,  1.21329E-01 ,  9.30365E-09 ,  3.63253E+00 ,  3.51120E+00 ,  4.06267E+00 ,  1.13444E-01 ,  4.17612E+00 ,  2.00000E+01 ,  3.94224E-04 ,  4.65182E-10 ,  2.71793E-02 ,  2.75735E-02
  1.31468E-05 ,   1.97152E-05 ,  1.21329E-01 ,  9.30365E-09 ,  3.63253E+00 ,  3.51120E+00 ,  4.06267E+00 ,  1.13444E-01 ,  4.17612E+00 ,  2.00000E+01 ,  3.94224E-04 ,  4.65182E-10 ,  2.71793E-02 ,  2.75735E-02
  1.97152E-05 ,   2.95678E-05 ,  1.21329E-01 ,  9.30365E-09 ,  3.63253E+00 ,  3.51120E+00 ,  4.06267E+00 ,  1.13444E-01 ,  4.17612E+00 ,  2.00000E+01 ,  3.94224E-04 ,  4.65182E-10 ,  2.71793E-02 ,  2.75735E-02
  2.95678E-05 ,   4.43468E-05 ,  1.21329E-01 ,  9.30365E-09 ,  3.63253E+00 ,  3.51120E+00 ,  4.06267E+00 ,  1.13444E-01 ,  4.17612E+00 ,  2.00000E+01 ,  3.94224E-04 ,  4.65182E-10 ,  2.71793E-02 ,  2.75735E-02
  4.43468E-05 ,   6.65151E-05 ,  1.21329E-01 ,  9.30365E-09 ,  3.63253E+00 ,  3.51120E+00 ,  4.06267E+00 ,  1.13444E-01 ,  4.17612E+00 ,  2.00000E+01 ,  3.94224E-04 ,  4.65182E-10 ,  2.71793E-02 ,  2.75735E-02
  6.65151E-05 ,   9.97677E-05 ,  1.21329E-01 ,  9.30365E-09 ,  3.63253E+00 ,  3.51120E+00 ,  4.06267E+00 ,  1.13444E-01 ,  4.17612E+00 ,  2.00000E+01 ,  3.94224E-04 ,  4.65182E-10 ,  2.71793E-02 ,  2.75735E-02
  9.97677E-05 ,   1.49647E-04 ,  1.21329E-01 ,  9.30365E-09 ,  3.63253E+00 ,  3.51120E+00 ,  4.06267E+00 ,  1.13444E-01 ,  4.17612E+00 ,  2.00000E+01 ,  3.94224E-04 ,  4.65182E-10 ,  2.71793E-02 ,  2.75735E-02
  1.49647E-04 ,   2.24465E-04 ,  1.21329E-01 ,  9.30365E-09 ,  3.63253E+00 ,  3.51120E+00 ,  4.06267E+00 ,  1.13444E-01 ,  4.17612E+00 ,  2.00000E+01 ,  3.94224E-04 ,  4.65182E-10 ,  2.71793E-02 ,  2.75735E-02
  2.24465E-04 ,   3.36692E-04 ,  1.21329E-01 ,  9.30365E-09 ,  3.63253E+00 ,  3.51120E+00 ,  4.06267E+00 ,  1.13444E-01 ,  4.17612E+00 ,  2.00000E+01 ,  3.94224E-04 ,  4.65182E-10 ,  2.71793E-02 ,  2.75735E-02
  3.36692E-04 ,   4.78986E-04 ,  1.21329E-01 ,  9.30365E-09 ,  3.63253E+00 ,  3.51120E+00 ,  4.06267E+00 ,  1.13444E-01 ,  4.17612E+00 ,  2.00000E+01 ,  3.94224E-04 ,  4.65182E-10 ,  2.71793E-02 ,  2.75735E-02
  4.78986E-04 ,   6.02126E-04 ,  1.21329E-01 ,  9.30365E-09 ,  3.63253E+00 ,  3.51120E+00 ,  4.06267E+00 ,  1.13444E-01 ,  4.17612E+00 ,  2.00000E+01 ,  3.94223E-04 ,  4.65182E-10 ,  2.71793E-02 ,  2.75735E-02
  6.02126E-04 ,   6.76511E-04 ,  1.21329E-01 ,  9.30365E-09 ,  3.63253E+00 ,  3.51120E+00 ,  4.06267E+00 ,  1.13444E-01 ,  4.17612E+00 ,  2.00000E+01 ,  3.94223E-04 ,  4.65182E-10 ,  2.71793E-02 ,  2.75735E-02
  6.76511E-04 ,   7.32300E-04 ,  1.21329E-01 ,  9.30365E-09 ,  3.63253E+00 ,  3.51120E+00 ,  4.06267E+00 ,  1.13444E-01 ,  4.17612E+00 ,  2.00000E+01 ,  3.94223E-04 ,  4.65182E-10 ,  2.71793E-02 ,  2.75735E-02
  7.32300E-04 ,   7.88089E-04 ,  1.21329E-01 ,  9.30365E-09 ,  3.63253E+00 ,  3.51120E+00 ,  4.06267E+00 ,  1.13444E-01 ,  4.17612E+00 ,  2.00000E+01 ,  3.94223E-04 ,  4.65182E-10 ,  2.71793E-02 ,  2.75735E-02
  7.88089E-04 ,   8.43878E-04 ,  1.21329E-01 ,  9.30365E-09 ,  3.63253E+00 ,  3.51120E+00 ,  4.06267E+00 ,  1.13444E-01 ,  4.17612E+00 ,  2.00000E+01 ,  3.94223E-04 ,  4.65182E-10 ,  2.71793E-02 ,  2.75735E-02
  8.43878E-04 ,   9.27561E-04 ,  1.21329E-01 ,  9.30365E-09 ,  3.63253E+00 ,  3.51120E+00 ,  4.06267E+00 ,  1.13444E-01 ,  4.17612E+00 ,  2.00000E+01 ,  3.94223E-04 ,  4.65182E-10 ,  2.71793E-02 ,  2.75735E-02
  9.27561E-04 ,   9.76058E-04 ,  1.21329E-01 ,  9.30365E-09 ,  3.63253E+00 ,  3.51120E+00 ,  4.06267E+00 ,  1.13444E-01 ,  4.17612E+00 ,  2.00000E+01 ,  3.94223E-04 ,  4.65182E-10 ,  2.71793E-02 ,  2.75735E-02
  9.76058E-04 ,   1.01617E-03 ,  1.21329E-01 ,  9.30365E-09 ,  3.63253E+00 ,  3.51120E+00 ,  4.06267E+00 ,  1.13444E-01 ,  4.17612E+00 ,  2.00000E+01 ,  3.94223E-04 ,  4.65182E-10 ,  2.71793E-02 ,  2.75735E-02
  1.01617E-03 ,   1.07219E-03 ,  1.21329E-01 ,  9.30365E-09 ,  3.63253E+00 ,  3.51120E+00 ,  4.06267E+00 ,  1.13444E-01 ,  4.17612E+00 ,  2.00000E+01 ,  3.94223E-04 ,  4.65182E-10 ,  2.71793E-02 ,  2.75735E-02
  1.07219E-03 ,   1.11203E-03 ,  1.21329E-01 ,  9.30365E-09 ,  3.63253E+00 ,  3.51120E+00 ,  4.06267E+00 ,  1.13444E-01 ,  4.17612E+00 ,  2.00000E+01 ,  3.94223E-04 ,  4.65182E-10 ,  2.71793E-02 ,  2.75735E-02
  1.11203E-03 ,   1.14701E-03 ,  1.21329E-01 ,  9.30365E-09 ,  3.63253E+00 ,  3.51120E+00 ,  4.06267E+00 ,  1.13444E-01 ,  4.17612E+00 ,  2.00000E+01 ,  3.94223E-04 ,  4.65182E-10 ,  2.71793E-02 ,  2.75735E-02
  1.14701E-03 ,   1.19672E-03 ,  1.21329E-01 ,  9.30365E-09 ,  3.63253E+00 ,  3.51120E+00 ,  4.06267E+00 ,  1.13444E-01 ,  4.17612E+00 ,  2.00000E+01 ,  3.94223E-04 ,  4.65182E-10 ,  2.71793E-02 ,  2.75735E-02
  1.19672E-03 ,   1.23622E-03 ,  1.21329E-01 ,  9.30365E-09 ,  3.63253E+00 ,  3.51120E+00 ,  4.06267E+00 ,  1.13444E-01 ,  4.17612E+00 ,  2.00000E+01 ,  3.94223E-04 ,  4.65182E-10 ,  2.71793E-02 ,  2.75735E-02
  1.23622E-03 ,   1.26922E-03 ,  1.21329E-01 ,  9.30365E-09 ,  3.63253E+00 ,  3.51120E+00 ,  4.06267E+00 ,  1.13444E-01 ,  4.17612E+00 ,  2.00000E+01 ,  3.94223E-04 ,  4.65182E-10 ,  2.71793E-02 ,  2.75735E-02
  1.26922E-03 ,   1.31871E-03 ,  1.21329E-01 ,  9.30365E-09 ,  3.63253E+00 ,  3.51120E+00 ,  4.06267E+00 ,  1.13444E-01 ,  4.17612E+00 ,  2.00000E+01 ,  3.94223E-04 ,  4.65182E-10 ,  2.71793E-02 ,  2.75735E-02
  1.31871E-03 ,   1.35716E-03 ,  1.21329E-01 ,  9.30365E-09 ,  3.63253E+00 ,  3.51120E+00 ,  4.06267E+00 ,  1.13444E-01 ,  4.17612E+00 ,  2.00000E+01 ,  3.94223E-04 ,  4.65182E-10 ,  2.71793E-02 ,  2.75735E-02
  1.35716E-03 ,   1.38952E-03 ,  1.21329E-01 ,  9.30365E-09 ,  3.63253E+00 ,  3.51120E+00 ,  4.06267E+00 ,  1.13444E-01 ,  4.17612E+00 ,  2.00000E+01 ,  3.94223E-04 ,  4.65182E-10 ,  2.71793E-02 ,  2.75735E-02
  1.38952E-03 ,   1.43806E-03 ,  1.21329E-01 ,  9.30365E-09 ,  3.63253E+00 ,  3.51120E+00 ,  4.06267E+00 ,  1.13444E-01 ,  4.17612E+00 ,  2.00000E+01 ,  3.94223E-04 ,  4.65182E-10 ,  2.71793E-02 ,  2.75735E-02
  1.43806E-03 ,   1.47721E-03 ,  1.21329E-01 ,  9.30365E-09 ,  3.63253E+00 ,  3.51120E+00 ,  4.06267E+00 ,  1.13444E-01 ,  4.17612E+00 ,  2.00000E+01 ,  3.94223E-04 ,  4.65182E-10 ,  2.71793E-02 ,  2.75735E-02
  1.47721E-03 ,   1.50954E-03 ,  1.21329E-01 ,  9.30365E-09 ,  3.63253E+00 ,  3.51120E+00 ,  4.06267E+00 ,  1.13444E-01 ,  4.17612E+00 ,  2.00000E+01 ,  3.94223E-04 ,  4.65182E-10 ,  2.71793E-02 ,  2.75735E-02
  1.50954E-03 ,   1.55803E-03 ,  1.21329E-01 ,  9.30365E-09 ,  3.63253E+00 ,  3.51120E+00 ,  4.06267E+00 ,  1.13444E-01 ,  4.17612E+00 ,  2.00000E+01 ,  3.94223E-04 ,  4.65182E-10 ,  2.71793E-02 ,  2.75735E-02
  1.55803E-03 ,   1.59781E-03 ,  1.21329E-01 ,  9.30365E-09 ,  3.63253E+00 ,  3.51120E+00 ,  4.06267E+00 ,  1.13444E-01 ,  4.17612E+00 ,  2.00000E+01 ,  3.94223E-04 ,  4.65182E-10 ,  2.71793E-02 ,  2.75735E-02
  1.59781E-03 ,   1.63040E-03 ,  1.21329E-01 ,  9.30365E-09 ,  3.63253E+00 ,  3.51120E+00 ,  4.06267E+00 ,  1.13444E-01 ,  4.17612E+00 ,  2.00000E+01 ,  3.94223E-04 ,  4.65182E-10 ,  2.71793E-02 ,  2.75735E-02
  1.63040E-03 ,   1.67929E-03 ,  1.21329E-01 ,  9.30365E-09 ,  3.63253E+00 ,  3.51120E+00 ,  4.06267E+00 ,  1.13444E-01 ,  4.17612E+00 ,  2.00000E+01 ,  3.94223E-04 ,  4.65182E-10 ,  2.71793E-02 ,  2.75735E-02
  1.67929E-03 ,   1.71996E-03 ,  1.21329E-01 ,  9.30365E-09 ,  3.63253E+00 ,  3.51120E+00 ,  4.06267E+00 ,  1.13444E-01 ,  4.17612E+00 ,  2.00000E+01 ,  3.94223E-04 ,  4.65182E-10 ,  2.71793E-02 ,  2.75735E-02
  1.71996E-03 ,   1.75291E-03 ,  1.21329E-01 ,  9.30365E-09 ,  3.63253E+00 ,  3.51120E+00 ,  4.06267E+00 ,  1.13444E-01 ,  4.17612E+00 ,  2.00000E+01 ,  3.94223E-04 ,  4.65182E-10 ,  2.71793E-02 ,  2.75735E-02
  1.75291E-03 ,   1.80235E-03 ,  1.21329E-01 ,  9.30365E-09 ,  3.63253E+00 ,  3.51120E+00 ,  4.06267E+00 ,  1.13444E-01 ,  4.17612E+00 ,  2.00000E+01 ,  3.94223E-04 ,  4.65182E-10 ,  2.71793E-02 ,  2.75735E-02
  1.80235E-03 ,   1.84391E-03 ,  1.21329E-01 ,  9.30365E-09 ,  3.63253E+00 ,  3.51120E+00 ,  4.06267E+00 ,  1.13444E-01 ,  4.17612E+00 ,  2.00000E+01 ,  3.94223E-04 ,  4.65182E-10 ,  2.71793E-02 ,  2.75735E-02
  1.84391E-03 ,   1.87725E-03 ,  1.21329E-01 ,  9.30365E-09 ,  3.63253E+00 ,  3.51120E+00 ,  4.06267E+00 ,  1.13444E-01 ,  4.17612E+00 ,  2.00000E+01 ,  3.94223E-04 ,  4.65182E-10 ,  2.71793E-02 ,  2.75735E-02
  1.87725E-03 ,   1.92728E-03 ,  1.21329E-01 ,  9.30365E-09 ,  3.63253E+00 ,  3.51120E+00 ,  4.06267E+00 ,  1.13444E-01 ,  4.17612E+00 ,  2.00000E+01 ,  3.94223E-04 ,  4.65182E-10 ,  2.71793E-02 ,  2.75735E-02
  1.92728E-03 ,   1.96971E-03 ,  1.21329E-01 ,  9.30365E-09 ,  3.63253E+00 ,  3.51120E+00 ,  4.06267E+00 ,  1.13444E-01 ,  4.17612E+00 ,  2.00000E+01 ,  3.94223E-04 ,  4.65182E-10 ,  2.71793E-02 ,  2.75735E-02
  1.96971E-03 ,   2.00344E-03 ,  1.21329E-01 ,  9.30365E-09 ,  3.63253E+00 ,  3.51120E+00 ,  4.06267E+00 ,  1.13444E-01 ,  4.17612E+00 ,  2.00000E+01 ,  3.94223E-04 ,  4.65182E-10 ,  2.71793E-02 ,  2.75735E-02
  2.00344E-03 ,   2.05402E-03 ,  1.21329E-01 ,  9.30365E-09 ,  3.63253E+00 ,  3.51120E+00 ,  4.06267E+00 ,  1.13444E-01 ,  4.17612E+00 ,  2.00000E+01 ,  3.94223E-04 ,  4.65182E-10 ,  2.71793E-02 ,  2.75735E-02
  2.05402E-03 ,   2.09729E-03 ,  1.21329E-01 ,  9.30365E-09 ,  3.63253E+00 ,  3.51120E+00 ,  4.06267E+00 ,  1.13444E-01 ,  4.17612E+00 ,  2.00000E+01 ,  3.94223E-04 ,  4.65182E-10 ,  2.71793E-02 ,  2.75735E-02
  2.09729E-03 ,   2.13135E-03 ,  1.21329E-01 ,  9.30365E-09 ,  3.63253E+00 ,  3.51120E+00 ,  4.06267E+00 ,  1.13444E-01 ,  4.17612E+00 ,  2.00000E+01 ,  3.94223E-04 ,  4.65182E-10 ,  2.71793E-02 ,  2.75735E-02
  2.13135E-03 ,   2.18245E-03 ,  1.21329E-01 ,  9.30365E-09 ,  3.63253E+00 ,  3.51120E+00 ,  4.06267E+00 ,  1.13444E-01 ,  4.17612E+00 ,  2.00000E+01 ,  3.94223E-04 ,  4.65182E-10 ,  2.71793E-02 ,  2.75735E-02
  2.18245E-03 ,   2.22647E-03 ,  1.21329E-01 ,  9.30365E-09 ,  3.63253E+00 ,  3.51120E+00 ,  4.06267E+00 ,  1.13444E-01 ,  4.17612E+00 ,  2.00000E+01 ,  3.94223E-04 ,  4.65182E-10 ,  2.71793E-02 ,  2.75735E-02
  2.22647E-03 ,   2.26083E-03 ,  1.21329E-01 ,  9.30365E-09 ,  3.63253E+00 ,  3.51120E+00 ,  4.06267E+00 ,  1.13444E-01 ,  4.17612E+00 ,  2.00000E+01 ,  3.94223E-04 ,  4.65182E-10 ,  2.71793E-02 ,  2.75735E-02
  2.26083E-03 ,   2.31237E-03 ,  1.21329E-01 ,  9.30365E-09 ,  3.63253E+00 ,  3.51120E+00 ,  4.06267E+00 ,  1.13444E-01 ,  4.17612E+00 ,  2.00000E+01 ,  3.94223E-04 ,  4.65182E-10 ,  2.71793E-02 ,  2.75735E-02
  2.31237E-03 ,   2.35709E-03 ,  1.21329E-01 ,  9.30365E-09 ,  3.63253E+00 ,  3.51120E+00 ,  4.06267E+00 ,  1.13444E-01 ,  4.17612E+00 ,  2.00000E+01 ,  3.94223E-04 ,  4.65182E-10 ,  2.71793E-02 ,  2.75735E-02
  2.35709E-03 ,   2.39170E-03 ,  1.21329E-01 ,  9.30365E-09 ,  3.63253E+00 ,  3.51120E+00 ,  4.06267E+00 ,  1.13444E-01 ,  4.17612E+00 ,  2.00000E+01 ,  3.94223E-04 ,  4.65182E-10 ,  2.71793E-02 ,  2.75735E-02
  2.39170E-03 ,   2.44361E-03 ,  1.21329E-01 ,  9.30365E-09 ,  3.63253E+00 ,  3.51120E+00 ,  4.06267E+00 ,  1.13444E-01 ,  4.17612E+00 ,  2.00000E+01 ,  3.94223E-04 ,  4.65182E-10 ,  2.71793E-02 ,  2.75735E-02
  2.44361E-03 ,   2.48895E-03 ,  1.21329E-01 ,  9.30365E-09 ,  3.63253E+00 ,  3.51120E+00 ,  4.06267E+00 ,  1.13444E-01 ,  4.17612E+00 ,  2.00000E+01 ,  3.94223E-04 ,  4.65182E-10 ,  2.71793E-02 ,  2.75735E-02
  2.48895E-03 ,   2.52376E-03 ,  1.21329E-01 ,  9.30365E-09 ,  3.63253E+00 ,  3.51120E+00 ,  4.06267E+00 ,  1.13444E-01 ,  4.17612E+00 ,  2.00000E+01 ,  3.94223E-04 ,  4.65182E-10 ,  2.71793E-02 ,  2.75735E-02
  2.52376E-03 ,   2.57599E-03 ,  1.21329E-01 ,  9.30365E-09 ,  3.63253E+00 ,  3.51120E+00 ,  4.06267E+00 ,  1.13444E-01 ,  4.17612E+00 ,  2.00000E+01 ,  3.94223E-04 ,  4.65182E-10 ,  2.71793E-02 ,  2.75735E-02
  2.57599E-03 ,   2.62188E-03 ,  1.21329E-01 ,  9.30365E-09 ,  3.63253E+00 ,  3.51120E+00 ,  4.06267E+00 ,  1.13444E-01 ,  4.17612E+00 ,  2.00000E+01 ,  3.94223E-04 ,  4.65182E-10 ,  2.71793E-02 ,  2.75735E-02
  2.62188E-03 ,   2.65686E-03 ,  1.21329E-01 ,  9.30365E-09 ,  3.63253E+00 ,  3.51120E+00 ,  4.06267E+00 ,  1.13444E-01 ,  4.17612E+00 ,  2.00000E+01 ,  3.94223E-04 ,  4.65182E-10 ,  2.71793E-02 ,  2.75735E-02
  2.65686E-03 ,   2.70933E-03 ,  1.21329E-01 ,  9.30365E-09 ,  3.63253E+00 ,  3.51120E+00 ,  4.06267E+00 ,  1.13444E-01 ,  4.17612E+00 ,  2.00000E+01 ,  3.94223E-04 ,  4.65182E-10 ,  2.71793E-02 ,  2.75735E-02
  2.70933E-03 ,   2.75571E-03 ,  1.21329E-01 ,  9.30365E-09 ,  3.63253E+00 ,  3.51120E+00 ,  4.06267E+00 ,  1.13444E-01 ,  4.17612E+00 ,  2.00000E+01 ,  3.94223E-04 ,  4.65182E-10 ,  2.71793E-02 ,  2.75735E-02
  2.75571E-03 ,   2.79083E-03 ,  1.21329E-01 ,  9.30365E-09 ,  3.63253E+00 ,  3.51120E+00 ,  4.06267E+00 ,  1.13444E-01 ,  4.17612E+00 ,  2.00000E+01 ,  3.94223E-04 ,  4.65182E-10 ,  2.71793E-02 ,  2.75735E-02
  2.79083E-03 ,   2.84350E-03 ,  1.21329E-01 ,  9.30365E-09 ,  3.63253E+00 ,  3.51120E+00 ,  4.06267E+00 ,  1.13444E-01 ,  4.17612E+00 ,  2.00000E+01 ,  3.94223E-04 ,  4.65182E-10 ,  2.71793E-02 ,  2.75735E-02
  2.84350E-03 ,   2.89030E-03 ,  1.21329E-01 ,  9.30365E-09 ,  3.63253E+00 ,  3.51120E+00 ,  4.06267E+00 ,  1.13444E-01 ,  4.17612E+00 ,  2.00000E+01 ,  3.94223E-04 ,  4.65182E-10 ,  2.71793E-02 ,  2.75735E-02
  2.89030E-03 ,   2.92552E-03 ,  1.21329E-01 ,  9.30365E-09 ,  3.63253E+00 ,  3.51120E+00 ,  4.06267E+00 ,  1.13444E-01 ,  4.17612E+00 ,  2.00000E+01 ,  3.94223E-04 ,  4.65182E-10 ,  2.71793E-02 ,  2.75735E-02
  2.92552E-03 ,   2.97835E-03 ,  1.21329E-01 ,  9.30365E-09 ,  3.63253E+00 ,  3.51120E+00 ,  4.06267E+00 ,  1.13444E-01 ,  4.17612E+00 ,  2.00000E+01 ,  3.94223E-04 ,  4.65182E-10 ,  2.71793E-02 ,  2.75735E-02
  2.97835E-03 ,   3.02552E-03 ,  1.21329E-01 ,  9.30365E-09 ,  3.63253E+00 ,  3.51120E+00 ,  4.06267E+00 ,  1.13444E-01 ,  4.17612E+00 ,  2.00000E+01 ,  3.94223E-04 ,  4.65182E-10 ,  2.71793E-02 ,  2.75735E-02
  3.02552E-03 ,   3.06082E-03 ,  1.21329E-01 ,  9.30365E-09 ,  3.63253E+00 ,  3.51120E+00 ,  4.06267E+00 ,  1.13444E-01 ,  4.17612E+00 ,  2.00000E+01 ,  3.94223E-04 ,  4.65182E-10 ,  2.71793E-02 ,  2.75735E-02
  3.06082E-03 ,   3.11377E-03 ,  1.21329E-01 ,  9.30365E-09 ,  3.63253E+00 ,  3.51120E+00 ,  4.06267E+00 ,  1.13444E-01 ,  4.17612E+00 ,  2.00000E+01 ,  3.94223E-04 ,  4.65182E-10 ,  2.71793E-02 ,  2.75735E-02
  3.11377E-03 ,   3.16126E-03 ,  1.21329E-01 ,  9.30365E-09 ,  3.63253E+00 ,  3.51120E+00 ,  4.06267E+00 ,  1.13444E-01 ,  4.17612E+00 ,  2.00000E+01 ,  3.94223E-04 ,  4.65182E-10 ,  2.71793E-02 ,  2.75735E-02
  3.16126E-03 ,   3.19662E-03 ,  1.21329E-01 ,  9.30365E-09 ,  3.63253E+00 ,  3.51120E+00 ,  4.06267E+00 ,  1.13444E-01 ,  4.17612E+00 ,  2.00000E+01 ,  3.94223E-04 ,  4.65182E-10 ,  2.71793E-02 ,  2.75735E-02
  3.19662E-03 ,   3.24966E-03 ,  1.21329E-01 ,  9.30365E-09 ,  3.63253E+00 ,  3.51120E+00 ,  4.06267E+00 ,  1.13444E-01 ,  4.17612E+00 ,  2.00000E+01 ,  3.94223E-04 ,  4.65182E-10 ,  2.71793E-02 ,  2.75735E-02
  3.24966E-03 ,   3.29742E-03 ,  1.21329E-01 ,  9.30365E-09 ,  3.63253E+00 ,  3.51120E+00 ,  4.06267E+00 ,  1.13444E-01 ,  4.17612E+00 ,  2.00000E+01 ,  3.94223E-04 ,  4.65182E-10 ,  2.71793E-02 ,  2.75735E-02
  3.29742E-03 ,   3.33282E-03 ,  1.21329E-01 ,  9.30365E-09 ,  3.63253E+00 ,  3.51120E+00 ,  4.06267E+00 ,  1.13444E-01 ,  4.17612E+00 ,  2.00000E+01 ,  3.94223E-04 ,  4.65182E-10 ,  2.71793E-02 ,  2.75735E-02
  3.33282E-03 ,   3.38593E-03 ,  1.21329E-01 ,  9.30365E-09 ,  3.63253E+00 ,  3.51120E+00 ,  4.06267E+00 ,  1.13444E-01 ,  4.17612E+00 ,  2.00000E+01 ,  3.94223E-04 ,  4.65182E-10 ,  2.71793E-02 ,  2.75735E-02
  3.38593E-03 ,   3.43392E-03 ,  1.21329E-01 ,  9.30365E-09 ,  3.63253E+00 ,  3.51120E+00 ,  4.06267E+00 ,  1.13444E-01 ,  4.17612E+00 ,  2.00000E+01 ,  3.94223E-04 ,  4.65182E-10 ,  2.71793E-02 ,  2.75735E-02
  3.43392E-03 ,   3.46936E-03 ,  1.21329E-01 ,  9.30365E-09 ,  3.63253E+00 ,  3.51120E+00 ,  4.06267E+00 ,  1.13444E-01 ,  4.17612E+00 ,  2.00000E+01 ,  3.94223E-04 ,  4.65182E-10 ,  2.71793E-02 ,  2.75735E-02
  3.46936E-03 ,   3.52252E-03 ,  1.21329E-01 ,  9.30365E-09 ,  3.63253E+00 ,  3.51120E+00 ,  4.06267E+00 ,  1.13444E-01 ,  4.17612E+00 ,  2.00000E+01 ,  3.94223E-04 ,  4.65182E-10 ,  2.71793E-02 ,  2.75735E-02
